X [s]	1 Gast Med [V]	2 T Ant [V]	3 R Fem [V]	4 B Fem [V]	
9.110000	6.743867e-06	4.711721e-05	2.625408e-06	6.575848e-06	
9.111000	6.673753e-06	4.708157e-05	2.598294e-06	6.577083e-06	
9.112000	6.605548e-06	4.702112e-05	2.575608e-06	6.578216e-06	
9.113000	6.539487e-06	4.693550e-05	2.557582e-06	6.579212e-06	
9.114000	6.475803e-06	4.682435e-05	2.544448e-06	6.580034e-06	
9.115000	6.414730e-06	4.668732e-05	2.536434e-06	6.580648e-06	
9.116001	6.356500e-06	4.652403e-05	2.533774e-06	6.581020e-06	
9.117001	6.301348e-06	4.633414e-05	2.536697e-06	6.581112e-06	
9.118001	6.249507e-06	4.611728e-05	2.545435e-06	6.580891e-06	
9.119001	6.201211e-06	4.587308e-05	2.560219e-06	6.580321e-06	
9.120001	6.156692e-06	4.560120e-05	2.581279e-06	6.579367e-06	
9.121001	6.116185e-06	4.530127e-05	2.608846e-06	6.577994e-06	
9.122001	6.079923e-06	4.497293e-05	2.643153e-06	6.576166e-06	
9.123001	6.048140e-06	4.461582e-05	2.684428e-06	6.573849e-06	
9.124001	6.021069e-06	4.422959e-05	2.732905e-06	6.571007e-06	
9.125001	5.998935e-06	4.381389e-05	2.788800e-06	6.567605e-06	
9.126001	5.981772e-06	4.336910e-05	2.852040e-06	6.563628e-06	
9.127002	5.969417e-06	4.289630e-05	2.922247e-06	6.559079e-06	
9.128002	5.961697e-06	4.239661e-05	2.999031e-06	6.553962e-06	
9.129002	5.958440e-06	4.187115e-05	3.082001e-06	6.548281e-06	
9.130002	5.959473e-06	4.132104e-05	3.170767e-06	6.542040e-06	
9.131002	5.964624e-06	4.074739e-05	3.264938e-06	6.535242e-06	
9.132002	5.973721e-06	4.015132e-05	3.364123e-06	6.527893e-06	
9.133002	5.986590e-06	3.953395e-05	3.467932e-06	6.519995e-06	
9.134002	6.003060e-06	3.889640e-05	3.575975e-06	6.511552e-06	
9.135002	6.022959e-06	3.823979e-05	3.687860e-06	6.502570e-06	
9.136002	6.046112e-06	3.756523e-05	3.803197e-06	6.493051e-06	
9.137002	6.072349e-06	3.687384e-05	3.921596e-06	6.482999e-06	
9.138003	6.101496e-06	3.616674e-05	4.042666e-06	6.472419e-06	
9.139003	6.133382e-06	3.544505e-05	4.166016e-06	6.461315e-06	
9.140003	6.167833e-06	3.470988e-05	4.291257e-06	6.449690e-06	
9.141003	6.204678e-06	3.396235e-05	4.417996e-06	6.437549e-06	
9.142003	6.243744e-06	3.320359e-05	4.545844e-06	6.424895e-06	
9.143003	6.284858e-06	3.243470e-05	4.674411e-06	6.411732e-06	
9.144003	6.327848e-06	3.165681e-05	4.803304e-06	6.398065e-06	
9.145003	6.372541e-06	3.087104e-05	4.932135e-06	6.383898e-06	
9.146003	6.418766e-06	3.007850e-05	5.060512e-06	6.369233e-06	
9.147003	6.466349e-06	2.928030e-05	5.188045e-06	6.354076e-06	
9.148003	6.515118e-06	2.847758e-05	5.314343e-06	6.338431e-06	
9.149004	6.564901e-06	2.767144e-05	5.439016e-06	6.322300e-06	
9.150004	6.615525e-06	2.686300e-05	5.561673e-06	6.305689e-06	
9.151004	6.666818e-06	2.605339e-05	5.681923e-06	6.288601e-06	
9.152004	6.718607e-06	2.524372e-05	5.799377e-06	6.271040e-06	
9.153004	6.770720e-06	2.443510e-05	5.913642e-06	6.253010e-06	
9.154004	6.822984e-06	2.362866e-05	6.024329e-06	6.234515e-06	
9.155004	6.875228e-06	2.282551e-05	6.131048e-06	6.215560e-06	
9.156004	6.927278e-06	2.202677e-05	6.233407e-06	6.196147e-06	
9.157004	6.978962e-06	2.123356e-05	6.331016e-06	6.176282e-06	
9.158004	7.030107e-06	2.044700e-05	6.423484e-06	6.155967e-06	
9.159004	7.080542e-06	1.966820e-05	6.510422e-06	6.135208e-06	
9.160005	7.130093e-06	1.889829e-05	6.591437e-06	6.114007e-06	
9.161005	7.178589e-06	1.813837e-05	6.666141e-06	6.092369e-06	
9.162005	7.225856e-06	1.738958e-05	6.734141e-06	6.070298e-06	
9.163005	7.271722e-06	1.665302e-05	6.795048e-06	6.047798e-06	
9.164005	7.316016e-06	1.592981e-05	6.848471e-06	6.024873e-06	
9.165005	7.358564e-06	1.522107e-05	6.894019e-06	6.001526e-06	
9.166005	7.399194e-06	1.452793e-05	6.931303e-06	5.977762e-06	
9.167005	7.437733e-06	1.385149e-05	6.959930e-06	5.953585e-06	
9.168005	7.474009e-06	1.319288e-05	6.979511e-06	5.928999e-06	
9.169005	7.507850e-06	1.255321e-05	6.989655e-06	5.904007e-06	
9.170005	7.539083e-06	1.193360e-05	6.989972e-06	5.878614e-06	
9.171006	7.567536e-06	1.133517e-05	6.980070e-06	5.852824e-06	
9.172006	7.593036e-06	1.075904e-05	6.959560e-06	5.826640e-06	
9.173006	7.615411e-06	1.020633e-05	6.928050e-06	5.800066e-06	
9.174006	7.634488e-06	9.678141e-06	6.885151e-06	5.773107e-06	
9.175006	7.650101e-06	9.175579e-06	6.830493e-06	5.745767e-06	
9.176006	7.662218e-06	8.699056e-06	6.764211e-06	5.718062e-06	
9.177006	7.670945e-06	8.248308e-06	6.686954e-06	5.690019e-06	
9.178006	7.676395e-06	7.823037e-06	6.599392e-06	5.661664e-06	
9.179006	7.678680e-06	7.422950e-06	6.502196e-06	5.633027e-06	
9.180006	7.677913e-06	7.047750e-06	6.396037e-06	5.604135e-06	
9.181006	7.674205e-06	6.697143e-06	6.281585e-06	5.575014e-06	
9.182007	7.667668e-06	6.370832e-06	6.159510e-06	5.545693e-06	
9.183007	7.658416e-06	6.068522e-06	6.030485e-06	5.516200e-06	
9.184007	7.646560e-06	5.789918e-06	5.895178e-06	5.486562e-06	
9.185007	7.632212e-06	5.534724e-06	5.754262e-06	5.456806e-06	
9.186007	7.615485e-06	5.302644e-06	5.608406e-06	5.426961e-06	
9.187007	7.596491e-06	5.093384e-06	5.458282e-06	5.397053e-06	
9.188007	7.575343e-06	4.906648e-06	5.304560e-06	5.367111e-06	
9.189007	7.552152e-06	4.742140e-06	5.147910e-06	5.337162e-06	
9.190007	7.527031e-06	4.599564e-06	4.989004e-06	5.307233e-06	
9.191007	7.500092e-06	4.478626e-06	4.828512e-06	5.277353e-06	
9.192007	7.471447e-06	4.379029e-06	4.667105e-06	5.247549e-06	
9.193008	7.441209e-06	4.300479e-06	4.505453e-06	5.217848e-06	
9.194008	7.409490e-06	4.242680e-06	4.344228e-06	5.188278e-06	
9.195008	7.376402e-06	4.205336e-06	4.184099e-06	5.158867e-06	
9.196008	7.342057e-06	4.188151e-06	4.025738e-06	5.129643e-06	
9.197008	7.306568e-06	4.190831e-06	3.869815e-06	5.100632e-06	
9.198008	7.270047e-06	4.213080e-06	3.717001e-06	5.071862e-06	
9.199008	7.232606e-06	4.254603e-06	3.567967e-06	5.043362e-06	
9.200008	7.194357e-06	4.315103e-06	3.423383e-06	5.015159e-06	
9.201008	7.155413e-06	4.394285e-06	3.283920e-06	4.987280e-06	
9.202008	7.115886e-06	4.491855e-06	3.150248e-06	4.959753e-06	
9.203008	7.075889e-06	4.607516e-06	3.023039e-06	4.932605e-06	
9.204009	7.035532e-06	4.740972e-06	2.902963e-06	4.905865e-06	
9.205009	6.994930e-06	4.891930e-06	2.790691e-06	4.879559e-06	
9.206009	6.954193e-06	5.060092e-06	2.686893e-06	4.853716e-06	
9.207009	6.913434e-06	5.245164e-06	2.592240e-06	4.828363e-06	
9.208009	6.872767e-06	5.446849e-06	2.507403e-06	4.803527e-06	
9.209009	6.832301e-06	5.664854e-06	2.433053e-06	4.779237e-06	
9.210009	6.792151e-06	5.898881e-06	2.369860e-06	4.755519e-06	
9.211009	6.752428e-06	6.148636e-06	2.318494e-06	4.732402e-06	
9.212009	6.713245e-06	6.413822e-06	2.279627e-06	4.709913e-06	
9.213009	6.674713e-06	6.694146e-06	2.253929e-06	4.688080e-06	
9.214009	6.636946e-06	6.989310e-06	2.242072e-06	4.666930e-06	
9.215010	6.600054e-06	7.299020e-06	2.244725e-06	4.646490e-06	
9.216010	6.564152e-06	7.622981e-06	2.262559e-06	4.626790e-06	
9.217010	6.529350e-06	7.960896e-06	2.296245e-06	4.607855e-06	
9.218010	6.495761e-06	8.312469e-06	2.346453e-06	4.589714e-06	
9.219010	6.463497e-06	8.677407e-06	2.413855e-06	4.572394e-06	
9.220010	6.432672e-06	9.055413e-06	2.499122e-06	4.555923e-06	
9.221010	6.403396e-06	9.446191e-06	2.602922e-06	4.540329e-06	
9.222010	6.375782e-06	9.849447e-06	2.725929e-06	4.525639e-06	
9.223010	6.349942e-06	1.026488e-05	2.868811e-06	4.511881e-06	
9.224010	6.325989e-06	1.069221e-05	3.032240e-06	4.499081e-06	
9.225010	6.304031e-06	1.113112e-05	3.216852e-06	4.487268e-06	
9.226011	6.284086e-06	1.158113e-05	3.422491e-06	4.476442e-06	
9.227011	6.266082e-06	1.204160e-05	3.648204e-06	4.466580e-06	
9.228011	6.249940e-06	1.251188e-05	3.893005e-06	4.457657e-06	
9.229011	6.235585e-06	1.299130e-05	4.155908e-06	4.449649e-06	
9.230011	6.222941e-06	1.347921e-05	4.435926e-06	4.442529e-06	
9.231011	6.211930e-06	1.397495e-05	4.732073e-06	4.436275e-06	
9.232011	6.202475e-06	1.447787e-05	5.043361e-06	4.430861e-06	
9.233011	6.194501e-06	1.498731e-05	5.368806e-06	4.426263e-06	
9.234011	6.187929e-06	1.550261e-05	5.707419e-06	4.422455e-06	
9.235011	6.182685e-06	1.602312e-05	6.058216e-06	4.419413e-06	
9.236011	6.178690e-06	1.654818e-05	6.420208e-06	4.417113e-06	
9.237012	6.175868e-06	1.707713e-05	6.792411e-06	4.415529e-06	
9.238012	6.174143e-06	1.760933e-05	7.173836e-06	4.414637e-06	
9.239012	6.173438e-06	1.814410e-05	7.563498e-06	4.414413e-06	
9.240012	6.173676e-06	1.868079e-05	7.960411e-06	4.414831e-06	
9.241012	6.174780e-06	1.921876e-05	8.363587e-06	4.415867e-06	
9.242012	6.176674e-06	1.975733e-05	8.772041e-06	4.417495e-06	
9.243012	6.179281e-06	2.029587e-05	9.184785e-06	4.419693e-06	
9.244012	6.182524e-06	2.083370e-05	9.600834e-06	4.422434e-06	
9.245012	6.186327e-06	2.137017e-05	1.001920e-05	4.425694e-06	
9.246012	6.190613e-06	2.190463e-05	1.043890e-05	4.429448e-06	
9.247012	6.195305e-06	2.243641e-05	1.085894e-05	4.433672e-06	
9.248013	6.200327e-06	2.296487e-05	1.127834e-05	4.438340e-06	
9.249013	6.205601e-06	2.348935e-05	1.169611e-05	4.443429e-06	
9.250013	6.211052e-06	2.400918e-05	1.211127e-05	4.448913e-06	
9.251013	6.216602e-06	2.452372e-05	1.252283e-05	4.454768e-06	
9.252013	6.222175e-06	2.503231e-05	1.292980e-05	4.460969e-06	
9.253013	6.227694e-06	2.553429e-05	1.333120e-05	4.467491e-06	
9.254013	6.233082e-06	2.602900e-05	1.372603e-05	4.474310e-06	
9.255013	6.238263e-06	2.651578e-05	1.411332e-05	4.481400e-06	
9.256013	6.243160e-06	2.699399e-05	1.449207e-05	4.488738e-06	
9.257013	6.247697e-06	2.746297e-05	1.486131e-05	4.496298e-06	
9.258013	6.251795e-06	2.792205e-05	1.522004e-05	4.504056e-06	
9.259014	6.255380e-06	2.837058e-05	1.556727e-05	4.511987e-06	
9.260014	6.258374e-06	2.880791e-05	1.590203e-05	4.520067e-06	
9.261014	6.260701e-06	2.923338e-05	1.622332e-05	4.528270e-06	
9.262014	6.262283e-06	2.964633e-05	1.653016e-05	4.536572e-06	
9.263014	6.263044e-06	3.004610e-05	1.682155e-05	4.544948e-06	
9.264014	6.262908e-06	3.043205e-05	1.709653e-05	4.553373e-06	
9.265014	6.261798e-06	3.080350e-05	1.735409e-05	4.561824e-06	
9.266014	6.259636e-06	3.115982e-05	1.759325e-05	4.570274e-06	
9.267014	6.256347e-06	3.150033e-05	1.781303e-05	4.578700e-06	
9.268014	6.251853e-06	3.182439e-05	1.801244e-05	4.587076e-06	
9.269014	6.246079e-06	3.213133e-05	1.819048e-05	4.595379e-06	
9.270015	6.238947e-06	3.242050e-05	1.834619e-05	4.603582e-06	
9.271015	6.230380e-06	3.269125e-05	1.847856e-05	4.611662e-06	
9.272015	6.220302e-06	3.294292e-05	1.858662e-05	4.619594e-06	
9.273015	6.208636e-06	3.317484e-05	1.866937e-05	4.627353e-06	
9.274015	6.195306e-06	3.338637e-05	1.872583e-05	4.634915e-06	
9.275015	6.180238e-06	3.357687e-05	1.875506e-05	4.642255e-06	
9.276015	6.163455e-06	3.374616e-05	1.875700e-05	4.649375e-06	
9.277015	6.145069e-06	3.389450e-05	1.873249e-05	4.656301e-06	
9.278015	6.125199e-06	3.402220e-05	1.868241e-05	4.663058e-06	
9.279015	6.103963e-06	3.412953e-05	1.860764e-05	4.669674e-06	
9.280015	6.081478e-06	3.421679e-05	1.850905e-05	4.676175e-06	
9.281016	6.057861e-06	3.428427e-05	1.838752e-05	4.682588e-06	
9.282016	6.033232e-06	3.433226e-05	1.824394e-05	4.688939e-06	
9.283016	6.007707e-06	3.436105e-05	1.807916e-05	4.695255e-06	
9.284016	5.981404e-06	3.437093e-05	1.789408e-05	4.701562e-06	
9.285016	5.954442e-06	3.436219e-05	1.768957e-05	4.707887e-06	
9.286016	5.926938e-06	3.433511e-05	1.746651e-05	4.714257e-06	
9.287016	5.899009e-06	3.429000e-05	1.722577e-05	4.720698e-06	
9.288016	5.870774e-06	3.422714e-05	1.696823e-05	4.727236e-06	
9.289016	5.842351e-06	3.414681e-05	1.669477e-05	4.733899e-06	
9.290016	5.813856e-06	3.404932e-05	1.640627e-05	4.740713e-06	
9.291016	5.785409e-06	3.393495e-05	1.610360e-05	4.747704e-06	
9.292017	5.757126e-06	3.380398e-05	1.578764e-05	4.754899e-06	
9.293017	5.729126e-06	3.365672e-05	1.545927e-05	4.762325e-06	
9.294017	5.701526e-06	3.349345e-05	1.511936e-05	4.770008e-06	
9.295017	5.674445e-06	3.331446e-05	1.476879e-05	4.777974e-06	
9.296017	5.647999e-06	3.312003e-05	1.440844e-05	4.786251e-06	
9.297017	5.622307e-06	3.291047e-05	1.403918e-05	4.794865e-06	
9.298017	5.597487e-06	3.268606e-05	1.366190e-05	4.803842e-06	
9.299017	5.573656e-06	3.244710e-05	1.327747e-05	4.813209e-06	
9.300017	5.550932e-06	3.219386e-05	1.288677e-05	4.822993e-06	
9.301017	5.529433e-06	3.192664e-05	1.249067e-05	4.833220e-06	
9.302017	5.509277e-06	3.164574e-05	1.209005e-05	4.843917e-06	
9.303017	5.490581e-06	3.135144e-05	1.168579e-05	4.855110e-06	
9.304018	5.473464e-06	3.104402e-05	1.127877e-05	4.866826e-06	
9.305018	5.458043e-06	3.072379e-05	1.086985e-05	4.879091e-06	
9.306018	5.444435e-06	3.039104e-05	1.045993e-05	4.891932e-06	
9.307018	5.432760e-06	3.004604e-05	1.004988e-05	4.905376e-06	
9.308018	5.423134e-06	2.968910e-05	9.640570e-06	4.919450e-06	
9.309018	5.415675e-06	2.932050e-05	9.232882e-06	4.934179e-06	
9.310018	5.410501e-06	2.894053e-05	8.827693e-06	4.949590e-06	
9.311018	5.407730e-06	2.854948e-05	8.425879e-06	4.965710e-06	
9.312018	5.407480e-06	2.814765e-05	8.028319e-06	4.982566e-06	
9.313018	5.409868e-06	2.773531e-05	7.635888e-06	5.000184e-06	
9.314018	5.415013e-06	2.731277e-05	7.249465e-06	5.018590e-06	
9.315019	5.423032e-06	2.688032e-05	6.869927e-06	5.037812e-06	
9.316019	5.434042e-06	2.643824e-05	6.498150e-06	5.057875e-06	
9.317019	5.448163e-06	2.598682e-05	6.135011e-06	5.078807e-06	
9.318019	5.465510e-06	2.552635e-05	5.781389e-06	5.100634e-06	
9.319019	5.486203e-06	2.505713e-05	5.438160e-06	5.123382e-06	
9.320019	5.510359e-06	2.457944e-05	5.106201e-06	5.147078e-06	
9.321019	5.538096e-06	2.409357e-05	4.786389e-06	5.171749e-06	
9.322019	5.569532e-06	2.359982e-05	4.479601e-06	5.197421e-06	
9.323019	5.604784e-06	2.309847e-05	4.186716e-06	5.224121e-06	
9.324019	5.643970e-06	2.258981e-05	3.908609e-06	5.251875e-06	
9.325019	5.687202e-06	2.207416e-05	3.646132e-06	5.280708e-06	
9.326020	5.734454e-06	2.155217e-05	3.399549e-06	5.310596e-06	
9.327020	5.785564e-06	2.102489e-05	3.168552e-06	5.341464e-06	
9.328020	5.840367e-06	2.049333e-05	2.952810e-06	5.373239e-06	
9.329020	5.898695e-06	1.995856e-05	2.751990e-06	5.405847e-06	
9.330020	5.960383e-06	1.942160e-05	2.565760e-06	5.439211e-06	
9.331020	6.025263e-06	1.888350e-05	2.393788e-06	5.473259e-06	
9.332020	6.093170e-06	1.834530e-05	2.235741e-06	5.507914e-06	
9.333020	6.163936e-06	1.780804e-05	2.091288e-06	5.543103e-06	
9.334020	6.237396e-06	1.727275e-05	1.960096e-06	5.578751e-06	
9.335020	6.313382e-06	1.674049e-05	1.841834e-06	5.614782e-06	
9.336020	6.391728e-06	1.621228e-05	1.736169e-06	5.651123e-06	
9.337021	6.472267e-06	1.568918e-05	1.642770e-06	5.687699e-06	
9.338021	6.554834e-06	1.517222e-05	1.561303e-06	5.724435e-06	
9.339021	6.639261e-06	1.466243e-05	1.491437e-06	5.761256e-06	
9.340021	6.725382e-06	1.416087e-05	1.432840e-06	5.798088e-06	
9.341021	6.813031e-06	1.366857e-05	1.385179e-06	5.834856e-06	
9.342021	6.902041e-06	1.318658e-05	1.348123e-06	5.871485e-06	
9.343021	6.992245e-06	1.271593e-05	1.321339e-06	5.907901e-06	
9.344021	7.083477e-06	1.225766e-05	1.304496e-06	5.944029e-06	
9.345021	7.175570e-06	1.181281e-05	1.297260e-06	5.979794e-06	
9.346021	7.268358e-06	1.138243e-05	1.299301e-06	6.015122e-06	
9.347021	7.361674e-06	1.096755e-05	1.310286e-06	6.049938e-06	
9.348022	7.455353e-06	1.056922e-05	1.329882e-06	6.084167e-06	
9.349022	7.549226e-06	1.018848e-05	1.357758e-06	6.117735e-06	
9.350022	7.643129e-06	9.826357e-06	1.393581e-06	6.150567e-06	
9.351022	7.736893e-06	9.483904e-06	1.437020e-06	6.182589e-06	
9.352022	7.830353e-06	9.162158e-06	1.487742e-06	6.213725e-06	
9.353022	7.923343e-06	8.862159e-06	1.545415e-06	6.243901e-06	
9.354022	8.015695e-06	8.584948e-06	1.609707e-06	6.273042e-06	
9.355022	8.107243e-06	8.331566e-06	1.680287e-06	6.301074e-06	
9.356022	8.197821e-06	8.103052e-06	1.756820e-06	6.327922e-06	
9.357022	8.287262e-06	7.900447e-06	1.838977e-06	6.353512e-06	
9.358022	8.375399e-06	7.724792e-06	1.926424e-06	6.377768e-06	
9.359023	8.462067e-06	7.577128e-06	2.018829e-06	6.400616e-06	
9.360023	8.547098e-06	7.458493e-06	2.115861e-06	6.421981e-06	
9.361023	8.630326e-06	7.369930e-06	2.217187e-06	6.441789e-06	
9.362023	8.711584e-06	7.312478e-06	2.322475e-06	6.459965e-06	
9.363023	8.790707e-06	7.287177e-06	2.431393e-06	6.476434e-06	
9.364023	8.867527e-06	7.295069e-06	2.543608e-06	6.491122e-06	
9.365023	8.941877e-06	7.337194e-06	2.658790e-06	6.503954e-06	
9.366023	9.013592e-06	7.414592e-06	2.776604e-06	6.514856e-06	
9.367023	9.082505e-06	7.528303e-06	2.896720e-06	6.523751e-06	
9.368023	9.148450e-06	7.679368e-06	3.018806e-06	6.530567e-06	
9.369023	9.211259e-06	7.868828e-06	3.142529e-06	6.535229e-06	
9.370024	9.270766e-06	8.097723e-06	3.267556e-06	6.537660e-06	
9.371024	9.326806e-06	8.367093e-06	3.393557e-06	6.537788e-06	
9.372024	9.379210e-06	8.677979e-06	3.520198e-06	6.535537e-06	
9.373024	9.427813e-06	9.031421e-06	3.647148e-06	6.530833e-06	
9.374024	9.472449e-06	9.428459e-06	3.774075e-06	6.523600e-06	
9.375024	9.512955e-06	9.870065e-06	3.900652e-06	6.513768e-06	
9.376024	9.549291e-06	1.035569e-05	4.026676e-06	6.501334e-06	
9.377024	9.581530e-06	1.088332e-05	4.152063e-06	6.486360e-06	
9.378024	9.609749e-06	1.145088e-05	4.276736e-06	6.468911e-06	
9.379024	9.634028e-06	1.205628e-05	4.400615e-06	6.449054e-06	
9.380024	9.654443e-06	1.269747e-05	4.523621e-06	6.426855e-06	
9.381025	9.671074e-06	1.337236e-05	4.645677e-06	6.402378e-06	
9.382025	9.683999e-06	1.407887e-05	4.766703e-06	6.375691e-06	
9.383025	9.693295e-06	1.481493e-05	4.886621e-06	6.346857e-06	
9.384025	9.699040e-06	1.557846e-05	5.005352e-06	6.315944e-06	
9.385025	9.701314e-06	1.636740e-05	5.122817e-06	6.283016e-06	
9.386025	9.700193e-06	1.717965e-05	5.238938e-06	6.248139e-06	
9.387025	9.695757e-06	1.801316e-05	5.353636e-06	6.211380e-06	
9.388025	9.688083e-06	1.886583e-05	5.466833e-06	6.172803e-06	
9.389025	9.677249e-06	1.973560e-05	5.578449e-06	6.132475e-06	
9.390025	9.663333e-06	2.062039e-05	5.688406e-06	6.090461e-06	
9.391025	9.646415e-06	2.151812e-05	5.796626e-06	6.046826e-06	
9.392026	9.626571e-06	2.242672e-05	5.903030e-06	6.001637e-06	
9.393026	9.603880e-06	2.334411e-05	6.007539e-06	5.954960e-06	
9.394026	9.578420e-06	2.426822e-05	6.110075e-06	5.906858e-06	
9.395026	9.550269e-06	2.519697e-05	6.210558e-06	5.857400e-06	
9.396026	9.519505e-06	2.612829e-05	6.308911e-06	5.806649e-06	
9.397026	9.486207e-06	2.706010e-05	6.405054e-06	5.754672e-06	
9.398026	9.450452e-06	2.799032e-05	6.498909e-06	5.701535e-06	
9.399026	9.412320e-06	2.891688e-05	6.590398e-06	5.647303e-06	
9.400026	9.371886e-06	2.983770e-05	6.679441e-06	5.592042e-06	
9.401026	9.329231e-06	3.075071e-05	6.765960e-06	5.535817e-06	
9.402026	9.284432e-06	3.165383e-05	6.849876e-06	5.478694e-06	
9.403027	9.237568e-06	3.254499e-05	6.931111e-06	5.420740e-06	
9.404027	9.188715e-06	3.342210e-05	7.009586e-06	5.362019e-06	
9.405027	9.137953e-06	3.428310e-05	7.085222e-06	5.302597e-06	
9.406027	9.085360e-06	3.512591e-05	7.157941e-06	5.242540e-06	
9.407027	9.031014e-06	3.594845e-05	7.227664e-06	5.181913e-06	
9.408027	8.974992e-06	3.674865e-05	7.294313e-06	5.120783e-06	
9.409027	8.917374e-06	3.752443e-05	7.357808e-06	5.059215e-06	
9.410027	8.858236e-06	3.827372e-05	7.418071e-06	4.997274e-06	
9.411027	8.797658e-06	3.899444e-05	7.475024e-06	4.935026e-06	
9.412027	8.735718e-06	3.968451e-05	7.528587e-06	4.872538e-06	
9.413027	8.672493e-06	4.034186e-05	7.578683e-06	4.809874e-06	
9.414028	8.608061e-06	4.096441e-05	7.625232e-06	4.747101e-06	
9.415028	8.542502e-06	4.155009e-05	7.668155e-06	4.684283e-06	
9.416028	8.475893e-06	4.209682e-05	7.707375e-06	4.621487e-06	
9.417028	8.408311e-06	4.260253e-05	7.742813e-06	4.558779e-06	
9.418028	8.339836e-06	4.306514e-05	7.774389e-06	4.496223e-06	
9.419028	8.270545e-06	4.348257e-05	7.802025e-06	4.433887e-06	
9.420028	8.200517e-06	4.385275e-05	7.825643e-06	4.371834e-06	
9.421028	8.129829e-06	4.417361e-05	7.845164e-06	4.310132e-06	
9.422028	8.058561e-06	4.444306e-05	7.860509e-06	4.248845e-06	
9.423028	7.986789e-06	4.465904e-05	7.871600e-06	4.188040e-06	
9.424028	7.914592e-06	4.481946e-05	7.878358e-06	4.127782e-06	
9.425029	7.842049e-06	4.492234e-05	7.880708e-06	4.068140e-06	
